#"+ESI TIC MS(all) Frag=120.0V SALJA0988.d "
#Point,X(Minutes),Y(Counts)
0,0.037,122462.2421875
1,0.041,5009.23046875
2,0.042,3030.51416015625
3,0.044,836.901123046875
4,0.046,5153.8291015625
5,0.047,5231.19482421875
6,0.049,3423.9462890625
7,0.051,1635.68127441406
8,0.052,1430.20788574219
9,0.054,737.45654296875
10,0.057,118155.8046875
11,0.060,4201.1484375
12,0.061,2965.5546875
13,0.063,1113.64978027344
14,0.065,5319.89892578125
15,0.066,5279.51220703125
16,0.068,3714.0869140625
17,0.070,1679.67529296875
18,0.071,2062.41967773438
19,0.073,1358.29064941406
20,0.076,124912.59375
21,0.079,706.571350097656
22,0.081,670.278869628906
23,0.082,76.2571868896484
24,0.085,113931.7421875
25,0.088,4321.626953125
26,0.090,3374.01684570313
27,0.092,1254.91271972656
28,0.093,1484.54223632813
29,0.095,1782.0693359375
30,0.096,1637.46862792969
31,0.098,5407.0009765625
32,0.100,4444.58056640625
33,0.101,4292.18994140625
34,0.104,116144.015625
35,0.107,700.998779296875
36,0.109,418.009307861328
37,0.111,418.009307861328
38,0.113,121042.09375
39,0.115,115156.2421875
40,0.117,116931.421875
41,0.120,4537.2421875
42,0.122,3711.38500976563
43,0.123,1052.34643554688
44,0.125,6010.78515625
45,0.127,4434.30810546875
46,0.128,4577.04931640625
47,0.130,1911.48876953125
48,0.132,1870.4228515625
49,0.133,1484.91125488281
50,0.136,120418.328125
51,0.138,122375.4765625
52,0.141,1164.78625488281
53,0.143,231.247543334961
54,0.144,231.247543334961
55,0.147,116085.8359375
56,0.149,115749.84375
57,0.150,117729.2890625
58,0.152,116045.3125
59,0.154,115703.078125
60,0.155,114965.9375
61,0.159,4435.81884765625
62,0.160,3586.96630859375
63,0.162,1072.72863769531
64,0.163,5453.25390625
65,0.165,5013.39794921875
66,0.167,4406.6708984375
67,0.168,1528.89819335938
68,0.170,1801.77380371094
69,0.172,1564.74438476563
70,0.174,112306.578125
71,0.176,111977.3203125
72,0.178,118279.3671875
73,0.181,445.26220703125
74,0.183,510.666076660156
75,0.184,15.5
76,0.187,121328.9765625
77,0.189,116503.0625
78,0.190,118691.6796875
79,0.192,116344.234375
80,0.194,112599.6796875
81,0.197,4616.87841796875
82,0.199,3083.04321289063
83,0.200,561.428283691406
84,0.202,2063.1533203125
85,0.204,1557.50646972656
86,0.205,1532.54296875
87,0.207,4592.232421875
88,0.209,5057.509765625
89,0.210,3358.4794921875
90,0.213,113957.5
91,0.215,119477.984375
92,0.216,113250.6484375
93,0.218,119013.046875
94,0.220,114954.53125
95,0.221,106629.1015625
96,0.223,116000.3515625
97,0.225,113143.28125
98,0.228,1170.72827148438
99,0.230,301.172210693359
100,0.231,77.2368392944336
101,0.234,117962.8203125
102,0.237,6116.0576171875
103,0.239,3023.48852539063
104,0.240,1383.68798828125
105,0.242,4731.4228515625
106,0.244,5237.2490234375
107,0.245,3436.55908203125
108,0.247,1792.2978515625
109,0.249,1684.92810058594
110,0.250,2213.39282226563
111,0.253,114090.1484375
112,0.255,117294.28125
113,0.256,112937.5
114,0.258,115526.390625
115,0.260,114799.8984375
116,0.262,117323.5625
117,0.263,110343.6875
118,0.265,118688.0078125
119,0.268,4578.10205078125
120,0.270,3834.52075195313
121,0.271,1156.09338378906
122,0.273,1490.7939453125
123,0.275,193.70768737793
124,0.276,193.70768737793
125,0.278,4740.15234375
126,0.280,5126.44189453125
127,0.281,2468.73413085938
128,0.284,117340.609375
129,0.286,113831.921875
130,0.289,1433.10717773438
131,0.291,1260.68823242188
132,0.292,1771.51147460938
133,0.295,117354.421875
134,0.297,112279.09375
135,0.298,108688.8671875
136,0.300,111156.3828125
137,0.302,117510.0078125
138,0.303,111676.171875
139,0.307,4788.97119140625
140,0.308,3661.73510742188
141,0.310,1053.80065917969
142,0.312,5130.7119140625
143,0.313,4547.1845703125
144,0.315,3354.599609375
145,0.318,114468.765625
146,0.321,462.116943359375
147,0.322,569.755065917969
148,0.324,569.755065917969
149,0.327,117227.7109375
150,0.330,1536.48852539063
151,0.332,2008.48950195313
152,0.333,1278.86218261719
153,0.336,113637.6796875
154,0.338,113886.140625
155,0.339,114278.8984375
156,0.341,117011.4375
157,0.343,115085.609375
158,0.346,4306.2431640625
159,0.348,3984.72924804688
160,0.349,1084.56628417969
161,0.351,5604.88134765625
162,0.353,4587.10693359375
163,0.354,3499.79296875
164,0.357,116301.6484375
165,0.360,1451.79064941406
166,0.362,389.720367431641
167,0.364,111.270820617676
168,0.366,114626.0859375
169,0.370,1491.55395507813
170,0.371,2397.87353515625
171,0.373,1107.16479492188
172,0.376,115208.9296875
173,0.377,116133.578125
174,0.379,120057.3671875
175,0.381,114880.2734375
176,0.382,107946.0546875
177,0.385,5420.92333984375
178,0.387,2773.60717773438
179,0.389,761.107543945313
180,0.390,4197.88671875
181,0.392,4783.65380859375
182,0.394,3505.58178710938
183,0.396,113975.265625
184,0.398,112539.25
185,0.401,1332.68872070313
186,0.403,1620.49926757813
187,0.405,1470.90417480469
188,0.407,117586.4765625
189,0.411,1088.54284667969
190,0.412,442.089294433594
191,0.414,30.202018737793
192,0.417,114401.5859375
193,0.418,113666.578125
194,0.420,116443
195,0.422,112248.4921875
196,0.425,4963.0498046875
197,0.427,2895.50927734375
198,0.428,897.716430664063
199,0.431,114032.359375
200,0.433,113183.515625
201,0.436,3969.03930664063
202,0.437,3401.23388671875
203,0.439,4034.03759765625
204,0.442,113640.6171875
205,0.445,2312.4921875
206,0.447,1521.18078613281
207,0.448,1716.45458984375
208,0.451,108980.78125
209,0.453,114647.2109375
210,0.454,124292.28125
211,0.458,824.484008789063
212,0.459,191.687118530273
213,0.461,12.5833339691162
214,0.464,115905.953125
215,0.467,5425.88330078125
216,0.469,2658.06103515625
217,0.470,1526.17163085938
218,0.473,115509.203125
219,0.476,2262.677734375
220,0.478,1937.38781738281
221,0.479,1707.54284667969
222,0.482,112570.1796875
223,0.485,3467.6494140625
224,0.487,3846.65087890625
225,0.489,4750.96728515625
226,0.491,110117.21875
227,0.493,108565.3515625
228,0.495,110223.8984375
229,0.498,4450.75927734375
230,0.500,2835.64404296875
231,0.501,1403.46630859375
232,0.504,109949.234375
233,0.507,2014.17980957031
234,0.509,1742.4658203125
235,0.511,1575.72387695313
236,0.513,111211.1484375
237,0.515,108407.8671875
238,0.517,113630.0546875
239,0.520,1262.11547851563
240,0.522,264.728393554688
241,0.523,52.408332824707
242,0.526,107832.671875
243,0.529,4154.18310546875
244,0.531,3871.908203125
245,0.532,3662.91723632813
246,0.535,108994.7421875
247,0.538,4027.94750976563
248,0.540,3231.79907226563
249,0.542,1413.46813964844
250,0.544,110225.3046875
251,0.548,1540.23095703125
252,0.549,1452.53918457031
253,0.551,680.108581542969
254,0.554,114755.7578125
255,0.555,109482.421875
256,0.557,108837.78125
257,0.560,756.065124511719
258,0.562,355.049255371094
259,0.564,105.700187683105
260,0.566,109270.7734375
261,0.568,113414.625
262,0.571,4265.48486328125
263,0.573,3274.23852539063
264,0.574,903.773498535156
265,0.576,4060.88696289063
266,0.578,3502.263671875
267,0.579,3203.80151367188
268,0.582,108307.359375
269,0.585,1692.345703125
270,0.587,1771.48913574219
271,0.589,1562.6640625
272,0.591,105179.5234375
273,0.593,112296.203125
274,0.595,106840.8828125
275,0.596,115733.671875
276,0.598,106780.96875
277,0.600,105425.484375
278,0.603,986.415710449219
279,0.605,411.753448486328
280,0.606,137.664474487305
281,0.609,113441.2265625
282,0.612,4056.24584960938
283,0.614,2854.54418945313
284,0.616,950.316589355469
285,0.617,4252.029296875
286,0.619,3550.96850585938
287,0.621,2630.9677734375
288,0.622,1467.99157714844
289,0.624,1684.17590332031
290,0.626,1357.11303710938
291,0.628,109255.53125
292,0.630,108568.1484375
293,0.632,108830.9609375
294,0.633,107229.2734375
295,0.635,115030.3046875
296,0.637,105436.140625
297,0.638,109994.734375
298,0.640,112614.859375
299,0.642,110526.8359375
300,0.645,4170.28125
301,0.647,3052.19653320313
302,0.648,1041.87060546875
303,0.650,1898.46862792969
304,0.652,2056.27490234375
305,0.653,1721.78503417969
306,0.655,1080.03979492188
307,0.656,133.717803955078
308,0.658,133.717803955078
309,0.661,112305.4453125
310,0.662,110545.25
311,0.664,107020.1484375
312,0.666,108886.96875
313,0.668,109465.578125
314,0.671,4755.5810546875
315,0.672,3241.22265625
316,0.674,3326.33569335938
317,0.677,109344.875
318,0.678,107568.265625
319,0.680,110866.6796875
320,0.683,4216.42724609375
321,0.685,3146.1640625
322,0.687,734.087158203125
323,0.688,2450.81494140625
324,0.690,1609.01123046875
325,0.692,1194.93591308594
326,0.694,109775.6171875
327,0.698,1315.85876464844
328,0.699,202.332412719727
329,0.701,15.0865383148193
330,0.704,108622.3515625
331,0.705,115131.796875
332,0.707,109015.921875
333,0.709,107645.7890625
334,0.712,2873.04321289063
335,0.714,4456.54052734375
336,0.715,2757.4794921875
337,0.718,108076.59375
338,0.720,110083.8359375
339,0.723,3752.390625
340,0.725,3588.77612304688
341,0.726,1021.82012939453
342,0.728,2086.84643554688
343,0.730,2129.11206054688
344,0.731,1441.505859375
345,0.734,105159.21875
346,0.736,105923.3984375
347,0.737,110354.203125
348,0.739,105845.7265625
349,0.741,105979.9140625
350,0.742,113584.90625
351,0.746,1077.26025390625
352,0.747,213.8193359375
353,0.749,166.561813354492
354,0.751,103246.6015625
355,0.753,113974.578125
356,0.756,4114.13037109375
357,0.758,4363.869140625
358,0.760,2958.67065429688
359,0.762,105041.0078125
360,0.766,5086.7373046875
361,0.767,3186.52392578125
362,0.769,969.447570800781
363,0.772,113770.046875
364,0.775,1543.27673339844
365,0.777,1866.02905273438
366,0.778,1486.14318847656
367,0.781,104925.6953125
368,0.783,109836.3828125
369,0.784,109870.359375
370,0.786,111172.5390625
371,0.789,515.067932128906
372,0.791,468.212249755859
373,0.793,78.0064086914063
374,0.795,105384.8984375
375,0.798,4519.29296875
376,0.800,2770.04541015625
377,0.802,1223.82971191406
378,0.804,103635.671875
379,0.806,104779.4921875
380,0.809,2057.49169921875
381,0.811,1523.75720214844
382,0.813,1524.65991210938
383,0.815,110472.6328125
384,0.817,106950.7578125
385,0.819,105410.4375
386,0.820,110754.015625
387,0.822,108752.7421875
388,0.825,4620.55224609375
389,0.827,4133.3359375
390,0.829,3614.54125976563
391,0.831,109174.3046875
392,0.835,4143.69140625
393,0.836,3245.51977539063
394,0.838,930.604919433594
395,0.840,836.357727050781
396,0.841,689.431640625
397,0.843,134.248153686523
398,0.846,111653.96875
399,0.849,1674.86901855469
400,0.850,1292.88806152344
401,0.852,1511.75598144531
402,0.855,106661
403,0.856,107771.3984375
404,0.858,106857.796875
405,0.860,108995.8046875
406,0.862,110512.3046875
407,0.863,106507.765625
408,0.866,3886.6796875
409,0.868,2783.67309570313
410,0.870,1062.06677246094
411,0.871,1308.60168457031
412,0.873,254.971267700195
413,0.875,97.6926193237305
414,0.877,110111.078125
415,0.881,1769.98803710938
416,0.882,1701.43896484375
417,0.884,1180.55444335938
418,0.887,106042.078125
419,0.888,106514.1328125
420,0.892,4493.12060546875
421,0.893,3880.82543945313
422,0.895,3627.28247070313
423,0.898,109775.34375
424,0.899,109147.03125
425,0.901,107693.203125
426,0.903,107847.6015625
427,0.906,4704.8232421875
428,0.908,3644.40112304688
429,0.909,572.673034667969
430,0.912,108591.765625
431,0.915,1778.93054199219
432,0.917,1126.78552246094
433,0.918,1524.53955078125
434,0.920,871.853820800781
435,0.922,450.215393066406
436,0.923,450.215393066406
437,0.926,109253.546875
438,0.928,111081.1640625
439,0.929,107955.4375
440,0.931,107991.5390625
441,0.933,106815.4609375
442,0.934,105378.625
443,0.938,3947.51513671875
444,0.939,4009.2705078125
445,0.941,3982.72827148438
446,0.944,108580.515625
447,0.947,3892.8349609375
448,0.949,3482.91430664063
449,0.950,1315.88208007813
450,0.952,1057.947265625
451,0.954,733.893737792969
452,0.955,733.893737792969
453,0.958,111851.0703125
454,0.961,1803.74621582031
455,0.963,1992.30944824219
456,0.964,766.254516601563
457,0.967,120428.3984375
458,0.969,118032.703125
459,0.971,115810.1328125
460,0.972,122112.296875
461,0.974,112532.2421875
462,0.977,4558.27587890625
463,0.979,4941.6669921875
464,0.980,3652.93530273438
465,0.983,118697.2890625
466,0.986,5918.79736328125
467,0.988,3111.03442382813
468,0.990,1138.85571289063
469,0.991,1475.87231445313
470,0.993,473.040252685547
471,0.995,79.1011962890625
472,0.997,117698.3984375
473,0.999,122078.5625
474,1.001,122192.921875
475,1.002,114847.640625
476,1.004,115723.5234375
477,1.006,115449.796875
478,1.009,1523.603515625
479,1.011,1122.76354980469
480,1.012,981.561218261719
481,1.014,2053.96875
482,1.016,2146.02368164063
483,1.017,1157.05334472656
484,1.020,112792.984375
485,1.023,3488.44775390625
486,1.025,1874.71313476563
487,1.027,637.801513671875
488,1.028,559.416748046875
489,1.030,208.31103515625
490,1.031,67.2112808227539
491,1.034,115164.8828125
492,1.036,121955.171875
493,1.038,117558.375
494,1.039,121545.796875
495,1.042,2413.44580078125
496,1.044,2606.87182617188
497,1.046,2426.62255859375
498,1.048,161994
499,1.052,8023.8134765625
500,1.053,4410.3359375
501,1.055,2076.52758789063
502,1.057,2612.18115234375
503,1.058,682.045349121094
504,1.060,424.834075927734
505,1.062,3053.72045898438
506,1.063,4082.51806640625
507,1.065,2607.7333984375
508,1.068,252941.15625
509,1.071,8984.296875
510,1.073,7864.60400390625
511,1.074,7065.978515625
512,1.076,6185.15966796875
513,1.077,5421.62109375
514,1.079,3248.41064453125
515,1.081,5359.47607421875
516,1.082,5952.7197265625
517,1.084,5692.005859375
518,1.087,353726.5625
519,1.090,11167.9716796875
520,1.092,11738.263671875
521,1.093,5845.43798828125
522,1.095,12452.3447265625
523,1.097,7885.5888671875
524,1.098,3868.85009765625
525,1.100,3831.150390625
526,1.102,3389.15209960938
527,1.103,3307.98608398438
528,1.106,417989.3125
529,1.109,33914.125
530,1.111,30186.869140625
531,1.113,12800.2734375
532,1.114,5874.70703125
533,1.116,6088.54541015625
534,1.117,5419.15673828125
535,1.119,3444.125
536,1.121,3470.81372070313
537,1.122,1994.95434570313
538,1.125,440240.28125
539,1.128,13746.056640625
540,1.130,13071.16015625
541,1.132,6550.8173828125
542,1.133,14571.3779296875
543,1.135,7965.7509765625
544,1.137,2890.16918945313
545,1.138,3172.82763671875
546,1.140,3962.41967773438
547,1.142,2808.22729492188
548,1.144,458662.21875
549,1.148,20031.556640625
550,1.149,19265.79296875
551,1.151,6966.552734375
552,1.153,6691.0810546875
553,1.154,8081.55810546875
554,1.156,4143.45556640625
555,1.157,5221.96630859375
556,1.159,4583.80859375
557,1.161,3635.1435546875
558,1.163,514545.125
559,1.167,11492.9423828125
560,1.168,16229.5703125
561,1.170,13756.654296875
562,1.172,10045.634765625
563,1.173,5857.30712890625
564,1.175,2035.75378417969
565,1.177,7715.6923828125
566,1.178,7033.97509765625
567,1.180,3148.05395507813
568,1.183,566109.5625
569,1.186,15694.32421875
570,1.188,15199.28515625
571,1.189,6094.966796875
572,1.191,6391.0302734375
573,1.193,7178.8662109375
574,1.194,2297.29541015625
575,1.196,4525.02587890625
576,1.197,247.775772094727
577,1.199,88.7613067626953
578,1.202,611077.25
579,1.205,18313.8515625
580,1.207,20877.8984375
581,1.208,14928.9912109375
582,1.210,27289.16796875
583,1.212,19337.880859375
584,1.213,9422.265625
585,1.215,8782.9716796875
586,1.217,7027.47998046875
587,1.218,3204.54931640625
588,1.221,692098.125
589,1.224,4314.67529296875
590,1.226,302.417449951172
591,1.228,280.052215576172
592,1.229,7492.96826171875
593,1.231,6003.41796875
594,1.233,2043.32177734375
595,1.234,5431.8271484375
596,1.236,5566.845703125
597,1.237,5156.30322265625
598,1.240,902646.75
599,1.243,138347.953125
600,1.245,74084.8203125
601,1.247,31409.220703125
602,1.248,184300.1875
603,1.250,83998.421875
604,1.252,31645.701171875
605,1.253,6797.0009765625
606,1.255,6974.01708984375
607,1.257,5186.34912109375
608,1.259,997575.0625
609,1.263,1865.75317382813
610,1.264,202.552612304688
611,1.266,215.377807617188
612,1.268,6269.0947265625
613,1.269,4878.69091796875
614,1.271,2866.29736328125
615,1.273,5736.4326171875
616,1.274,4972.44482421875
617,1.276,2692.42919921875
618,1.279,981403.75
619,1.282,187024.640625
620,1.283,83446.59375
621,1.285,41521.3046875
622,1.287,9467.2685546875
623,1.288,6855.775390625
624,1.290,2493.34204101563
625,1.292,3334.89575195313
626,1.293,3075.91918945313
627,1.295,2683.18286132813
628,1.298,875948.1875
629,1.301,6422.68701171875
630,1.303,5394.611328125
631,1.304,3260.08642578125
632,1.306,4664.86572265625
633,1.308,4295.755859375
634,1.309,1586.19848632813
635,1.311,1120.55297851563
636,1.313,147.628967285156
637,1.314,89.2609786987305
638,1.317,740912.1875
639,1.320,107712.5390625
640,1.322,52785.50390625
641,1.323,23067.873046875
642,1.325,10048.701171875
643,1.327,6164.7705078125
644,1.328,2666.34423828125
645,1.330,9677.720703125
646,1.332,10627.138671875
647,1.333,10325.8955078125
648,1.336,624519.9375
649,1.339,87448.9609375
650,1.341,41181.3828125
651,1.343,14707.0966796875
652,1.344,3445.57446289063
653,1.346,3171.27124023438
654,1.348,2488.57177734375
655,1.349,980.43701171875
656,1.351,273.606781005859
657,1.353,635.781433105469
658,1.355,496316.6875
659,1.358,54768.79296875
660,1.360,26154.705078125
661,1.362,12873.2529296875
662,1.363,13530.919921875
663,1.365,13249.7431640625
664,1.367,9916.9521484375
665,1.368,4595.8447265625
666,1.370,2283.25146484375
667,1.372,1402.96459960938
668,1.374,424529.84375
669,1.378,7121.1533203125
670,1.379,7520.9169921875
671,1.381,4860.14013671875
672,1.383,2289.6796875
673,1.384,1585.30065917969
674,1.386,1326.34655761719
675,1.388,3872.61376953125
676,1.389,2080.4111328125
677,1.391,1667.513671875
678,1.394,369476.84375
679,1.397,20532.1875
680,1.398,12022.0966796875
681,1.400,5049.10498046875
682,1.402,7469.3671875
683,1.403,7405.49658203125
684,1.405,6097.25390625
685,1.407,3346.09741210938
686,1.408,2298.13256835938
687,1.410,685.645568847656
688,1.413,310614.59375
689,1.416,6233.98583984375
690,1.418,4921.755859375
691,1.419,5397.1005859375
692,1.421,1748.06567382813
693,1.423,1190.16491699219
694,1.424,849.955993652344
695,1.426,6021.2109375
696,1.428,3658.3212890625
697,1.429,1682.05895996094
698,1.432,283478.9375
699,1.435,10312.9296875
700,1.437,4853.29248046875
701,1.438,3785.26684570313
702,1.440,4283.9169921875
703,1.442,3940.80810546875
704,1.443,3424.63110351563
705,1.445,3166.4130859375
706,1.447,2077.88598632813
707,1.448,388.460418701172
708,1.451,273978.1875
709,1.454,7939.703125
710,1.456,7645.8544921875
711,1.458,5288.40869140625
712,1.459,2727.0009765625
713,1.461,2323.96044921875
714,1.463,1948.60913085938
715,1.464,3006.29614257813
716,1.466,300.053039550781
717,1.468,254.00959777832
718,1.470,319180.71875
719,1.474,11351.0791015625
720,1.475,15438.4482421875
721,1.477,20597.439453125
722,1.478,786.369201660156
723,1.480,890.790161132813
724,1.482,682.537658691406
725,1.483,3922.09204101563
726,1.485,2840.86352539063
727,1.487,1406.73693847656
728,1.489,618238.4375
729,1.493,26753.953125
730,1.494,26988.919921875
731,1.496,13604.9541015625
732,1.498,10487.6396484375
733,1.499,12220.900390625
734,1.501,9500.5224609375
735,1.503,11668.369140625
736,1.504,8637.95703125
737,1.506,7387.91162109375
738,1.509,1077394.875
739,1.512,254635.90625
740,1.514,262940.125
741,1.515,219349.390625
742,1.517,737.361572265625
743,1.518,986.687805175781
744,1.520,648.524291992188
745,1.522,3111.501953125
746,1.523,2299.9697265625
747,1.525,314.207885742188
748,1.528,1172871.5
749,1.531,16676.701171875
750,1.533,16365.3701171875
751,1.534,11645.5185546875
752,1.536,13123.736328125
753,1.538,14181.6875
754,1.539,5689.369140625
755,1.541,12186.453125
756,1.543,10406.3486328125
757,1.544,5825.34423828125
758,1.547,1008260.5
759,1.550,182702.109375
760,1.552,178635.625
761,1.554,151940.375
762,1.555,4304.28759765625
763,1.557,4695.39599609375
764,1.558,4212.931640625
765,1.560,2656.6259765625
766,1.562,754.620666503906
767,1.563,157.286285400391
768,1.566,828048.4375
769,1.569,19863.68359375
770,1.571,17596.380859375
771,1.573,9224.6728515625
772,1.574,6650.48291015625
773,1.576,7894.8212890625
774,1.578,4861.21044921875
775,1.579,9601.603515625
776,1.581,8262.9248046875
777,1.583,3019.2861328125
778,1.585,678103.5625
779,1.589,73809.5859375
780,1.590,81714.7421875
781,1.592,63163.8515625
782,1.594,10869.52734375
783,1.595,10605.87109375
