#"+ESI TIC MS(all) Frag=120.0V SALJA0991.d "
#Point,X(Minutes),Y(Counts)
0,0.037,121377.828125
1,0.040,5274.7412109375
2,0.042,4204.36376953125
3,0.044,726.218322753906
4,0.045,5314.34423828125
5,0.047,3936.40673828125
6,0.049,3965.56616210938
7,0.050,1498.59826660156
8,0.052,2118.12451171875
9,0.054,1302.08654785156
10,0.056,117976.21875
11,0.060,5566.85107421875
12,0.061,3537.43139648438
13,0.063,1373.94567871094
14,0.065,1844.70471191406
15,0.066,1622.08972167969
16,0.068,1274.84240722656
17,0.069,4169.158203125
18,0.071,6012.02099609375
19,0.073,4630.65380859375
20,0.075,115754.3984375
21,0.079,1429.20080566406
22,0.080,404.795013427734
23,0.082,404.795013427734
24,0.085,115246.9609375
25,0.088,4058.02465820313
26,0.090,3201.51293945313
27,0.091,1508.9482421875
28,0.093,2031.25756835938
29,0.095,2194.61547851563
30,0.096,1313.33422851563
31,0.098,5249.53759765625
32,0.100,4956.65771484375
33,0.101,3868.72778320313
34,0.104,117133.2734375
35,0.106,120532.2109375
36,0.107,119126.1875
37,0.109,117873.0234375
38,0.111,118015.609375
39,0.112,114862.703125
40,0.114,115201.453125
41,0.116,117200.2421875
42,0.119,3307.66430664063
43,0.121,3929.02563476563
44,0.122,1005.89886474609
45,0.124,1852.34948730469
46,0.126,2326.22143554688
47,0.127,1830.44812011719
48,0.129,5260.03515625
49,0.130,5336.9326171875
50,0.132,5201.99072265625
51,0.135,119574.4375
52,0.136,114623.3359375
53,0.140,1447.021484375
54,0.141,588.517333984375
55,0.143,41.0131568908691
56,0.146,121148.828125
57,0.147,116064.9296875
58,0.149,110182.125
59,0.151,111584.6328125
60,0.152,119251.4296875
61,0.154,117213.8515625
62,0.157,5149.7568359375
63,0.159,2863.57153320313
64,0.161,1146.40368652344
65,0.162,1490.50964355469
66,0.164,1534.6865234375
67,0.166,1109.65832519531
68,0.168,120070.03125
69,0.172,5720.94580078125
70,0.173,4688.61962890625
71,0.175,4252.62109375
72,0.178,111950.390625
73,0.179,114462.1015625
74,0.181,120935.8046875
75,0.183,107410.03125
76,0.186,1037.26782226563
77,0.188,548.02099609375
78,0.189,88.0562133789063
79,0.192,115981.453125
80,0.194,115232.28125
81,0.197,5764.18505859375
82,0.198,3171.3046875
83,0.200,1281.53930664063
84,0.202,1908.34118652344
85,0.203,1239.12902832031
86,0.205,1500.47912597656
87,0.208,115571.4375
88,0.211,4733.88671875
89,0.213,4699.72607421875
90,0.214,3145.21606445313
91,0.217,120014.3671875
92,0.219,110402.7265625
93,0.220,118919.0546875
94,0.222,112205.4140625
95,0.224,117812.671875
96,0.225,122152.2890625
97,0.227,115704.5
98,0.230,1433.58068847656
99,0.232,358.743011474609
100,0.234,48.0919303894043
101,0.236,115630.4453125
102,0.240,5361.263671875
103,0.241,4307.70556640625
104,0.243,774.606811523438
105,0.245,5246.31689453125
106,0.246,6574.671875
107,0.248,4866.28857421875
108,0.250,2039.89929199219
109,0.251,1477.78100585938
110,0.253,1478.5
111,0.256,115392.75
112,0.257,118368.078125
113,0.259,117132.75
114,0.261,115507.9140625
115,0.262,117219.71875
116,0.264,115051.0078125
117,0.266,117875.640625
118,0.267,113154.4765625
119,0.271,5432.1923828125
120,0.272,3931.11987304688
121,0.274,1394.22534179688
122,0.276,1809.3017578125
123,0.277,1667.37133789063
124,0.279,2229.61352539063
125,0.280,5356.98974609375
126,0.282,4758.03125
127,0.284,3848.52563476563
128,0.286,114543.8203125
129,0.290,1126.14782714844
130,0.291,403.16064453125
131,0.293,18.0559539794922
132,0.296,117762.9453125
133,0.297,118527.625
134,0.299,114559.5390625
135,0.301,115691.7890625
136,0.302,111167.4375
137,0.304,107036.1015625
138,0.306,113597.984375
139,0.307,114040.171875
140,0.311,4112.8759765625
141,0.312,2993.97143554688
142,0.314,1459.36572265625
143,0.316,3706.53198242188
144,0.317,4295.04443359375
145,0.319,4756.1201171875
146,0.322,114740.71875
147,0.325,1742.73962402344
148,0.327,2476.4111328125
149,0.328,1707.82531738281
150,0.330,711.830810546875
151,0.332,394.797180175781
152,0.333,57.8907852172852
153,0.336,115934.453125
154,0.338,117394.6328125
155,0.339,116583.03125
156,0.341,114339.1171875
157,0.343,114199.84375
158,0.344,111059.2109375
159,0.346,117197.421875
160,0.349,5215.27294921875
161,0.351,3498.71362304688
162,0.353,883.902160644531
163,0.354,5437.12109375
164,0.356,4079.3486328125
165,0.358,3735.55102539063
166,0.360,114774.46875
167,0.363,2077.62377929688
168,0.365,1804.05358886719
169,0.367,1430.45288085938
170,0.368,1106.3662109375
171,0.370,371.368316650391
172,0.372,22.0178565979004
173,0.374,118295.5390625
174,0.376,111287.6796875
175,0.378,113361.734375
176,0.379,114021.984375
177,0.381,114540.1328125
178,0.383,115919.2578125
179,0.384,114284.2890625
180,0.388,4704.44970703125
181,0.389,3853.16967773438
182,0.391,942.871154785156
183,0.393,3937.40698242188
184,0.394,3766.56030273438
185,0.396,3803.18725585938
186,0.399,118349.0078125
187,0.402,1917.25366210938
188,0.404,1954.52709960938
189,0.405,1561.34118652344
190,0.408,115650.6796875
191,0.410,117467.8203125
192,0.411,115186.3671875
193,0.413,113029.5390625
194,0.415,112319.9765625
195,0.416,113270.1796875
196,0.418,117044.7578125
197,0.421,911.19970703125
198,0.423,476.165069580078
199,0.425,48.3353157043457
200,0.427,109754.359375
201,0.431,4485.6767578125
202,0.432,4176.15869140625
203,0.434,625.306762695313
204,0.435,2209.46215820313
205,0.437,1519.79870605469
206,0.439,1854.42687988281
207,0.440,4984.966796875
208,0.442,3162.140625
209,0.444,3300.01220703125
210,0.446,110148.1953125
211,0.448,111342.28125
212,0.450,114827.453125
213,0.451,117947.0625
214,0.453,111565.4921875
215,0.455,118524.78125
216,0.457,113870.828125
217,0.458,111273.53125
218,0.461,4646.31494140625
219,0.463,3192.64306640625
220,0.465,1059.0498046875
221,0.466,4935.60888671875
222,0.468,4906.96142578125
223,0.470,3840.09448242188
224,0.471,1439.87451171875
225,0.473,1569.501953125
226,0.475,1747.02685546875
227,0.477,110875.84375
228,0.479,111698.734375
229,0.482,397.838043212891
230,0.484,516.262390136719
231,0.486,516.262390136719
232,0.488,119514.15625
233,0.490,117613.6953125
234,0.492,115529.4609375
235,0.493,112034.4296875
236,0.495,111990.0390625
237,0.497,106186.8203125
238,0.500,4137.97314453125
239,0.502,3142.8623046875
240,0.503,975.9619140625
241,0.505,1622.41918945313
242,0.507,1430.44445800781
243,0.508,1265.10485839844
244,0.511,113408.515625
245,0.514,4625.07666015625
246,0.516,3848.494140625
247,0.517,3133.95092773438
248,0.520,109799.90625
249,0.522,109217.78125
250,0.524,112662.140625
251,0.525,109160.5
252,0.527,113686.9375
253,0.529,108778.75
254,0.530,107959.859375
255,0.532,114498.0625
256,0.535,1043.80554199219
257,0.537,449.343414306641
258,0.538,76.0897445678711
259,0.541,112438.796875
260,0.544,4288.56005859375
261,0.546,2805.0947265625
262,0.548,1202.697265625
263,0.549,1979.56201171875
264,0.551,1493.09411621094
265,0.553,1494.30603027344
266,0.554,4454.36572265625
267,0.556,4905.57763671875
268,0.558,3351.40600585938
269,0.560,107537.171875
270,0.562,109318.0078125
271,0.564,112311.8828125
272,0.565,111460.8828125
273,0.567,110420.453125
274,0.569,113067.21875
275,0.570,109129.03125
276,0.572,110210.7265625
277,0.574,109466.4296875
278,0.577,4442.79541015625
279,0.579,3098.1943359375
280,0.580,763.748413085938
281,0.582,4542.236328125
282,0.584,4352.37109375
283,0.585,3961.20458984375
284,0.587,1661.05810546875
285,0.589,1659.86145019531
286,0.590,821.27587890625
287,0.593,107769.359375
288,0.595,108266.28125
289,0.596,110722.0390625
290,0.598,105907.703125
291,0.600,108797.453125
292,0.603,984.676635742188
293,0.605,787.822143554688
294,0.606,787.822143554688
295,0.609,103979.40625
296,0.611,105344.03125
297,0.612,107636.859375
298,0.616,5779.27490234375
299,0.617,3370.48388671875
300,0.619,922.240783691406
301,0.620,1413.57434082031
302,0.622,1744.18432617188
303,0.624,1696.90625
304,0.626,110568.3671875
305,0.628,99898.3828125
306,0.630,110415.4921875
307,0.632,110170.0390625
308,0.635,3816.9560546875
309,0.636,3916.67700195313
310,0.638,2811.72583007813
311,0.641,109739.8046875
312,0.642,105061.265625
313,0.646,764.603393554688
314,0.647,384.070281982422
315,0.649,90.0769195556641
316,0.652,111683.5703125
317,0.655,3978.55200195313
318,0.657,3196.95043945313
319,0.658,878.8740234375
320,0.660,2111.75170898438
321,0.662,2293.1630859375
322,0.663,1632.10595703125
323,0.666,111219.8671875
324,0.668,108413.6640625
325,0.669,108287.5625
326,0.671,101273.03125
327,0.674,4769.63623046875
328,0.676,3507.33203125
329,0.678,3490.3583984375
330,0.680,104160.1171875
331,0.682,105557.4609375
332,0.684,108170.296875
333,0.687,4231.80908203125
334,0.688,3359.05151367188
335,0.690,878.174194335938
336,0.692,1692.31359863281
337,0.693,1502.89892578125
338,0.695,1400.05932617188
339,0.697,1004.88232421875
340,0.698,306.690643310547
341,0.700,12.1838235855103
342,0.703,105602.921875
343,0.704,110611.078125
344,0.706,108361.171875
345,0.708,110355.28125
346,0.709,108364.8515625
347,0.711,107418.609375
348,0.713,108901.1015625
349,0.716,4852.97119140625
350,0.718,4238.453125
351,0.719,3342.35961914063
352,0.722,109347.2734375
353,0.724,109927.2890625
354,0.727,5578.63134765625
355,0.729,2908.95581054688
356,0.730,1045.62536621094
357,0.733,110657.3046875
358,0.736,1101.14331054688
359,0.738,316.252868652344
360,0.740,316.252868652344
361,0.741,1866.16516113281
362,0.743,1812.34399414063
363,0.745,2170.49047851563
364,0.747,107623.703125
365,0.749,108470.5390625
366,0.751,105730.875
367,0.752,105805.0859375
368,0.754,111477.65625
369,0.756,106607.203125
370,0.757,110997.7578125
371,0.761,4069.93212890625
372,0.762,3955.57934570313
373,0.764,3156.35278320313
374,0.767,104973.0234375
375,0.770,4253.16943359375
376,0.771,4101.2861328125
377,0.773,1166.40600585938
378,0.775,1549.2265625
379,0.776,1497.10217285156
380,0.778,2039.81787109375
381,0.781,112543.90625
382,0.784,1071.18872070313
383,0.786,396.449981689453
384,0.787,111.791763305664
385,0.790,101851.7265625
386,0.792,103560.9140625
387,0.793,106991.3359375
388,0.795,106524.828125
389,0.797,104895.4453125
390,0.798,105074.2578125
391,0.802,5007.30810546875
392,0.803,3299.05004882813
393,0.805,652.771484375
394,0.807,1527.15087890625
395,0.808,1721.37475585938
396,0.810,1539.44775390625
397,0.813,109999.2890625
398,0.816,820.007019042969
399,0.817,230.791641235352
400,0.819,7.44642877578735
401,0.822,115143.390625
402,0.825,4628.22998046875
403,0.827,4145.85888671875
404,0.828,3082.14672851563
405,0.831,103664.03125
406,0.833,108946.1796875
407,0.834,110010.5
408,0.836,109567.7421875
409,0.838,109830.3671875
410,0.841,5199.91650390625
411,0.843,3327.83618164063
412,0.844,653.588195800781
413,0.846,1950.13024902344
414,0.848,1496.1572265625
415,0.849,1385.29724121094
416,0.852,106607.1796875
417,0.855,655.908996582031
418,0.857,398.930877685547
419,0.859,398.930877685547
420,0.861,106085.671875
421,0.863,108445.6328125
422,0.866,4231.13427734375
423,0.868,4400.29296875
424,0.869,2742.75341796875
425,0.872,107386.984375
426,0.874,110518.078125
427,0.876,109374.7734375
428,0.877,107015.3046875
429,0.880,5049.67333984375
430,0.882,3118.23974609375
431,0.884,881.164489746094
432,0.885,1526.12048339844
433,0.887,1555.3720703125
434,0.889,1359.44116210938
435,0.891,105534.4765625
436,0.893,108087.0078125
437,0.895,102572.890625
438,0.896,111146.078125
439,0.900,824.580017089844
440,0.901,457.540588378906
441,0.903,104.178573608398
442,0.906,110620.6640625
443,0.907,107846.6953125
444,0.909,104812.6875
445,0.911,102699.7265625
446,0.912,106921.1328125
447,0.916,3995.06982421875
448,0.917,4606.3681640625
449,0.919,3923.33081054688
450,0.922,109888.5
451,0.925,4351.923828125
452,0.927,2431.07885742188
453,0.928,1363.3408203125
454,0.930,1267.5556640625
455,0.932,1758.15087890625
456,0.933,1435.08520507813
457,0.936,109144.4375
458,0.939,702.454711914063
459,0.941,553.236083984375
460,0.942,201.798858642578
461,0.945,117118.609375
462,0.947,117837.1171875
463,0.948,116069.546875
464,0.950,116865.09375
465,0.952,124003.9453125
466,0.954,124243.703125
467,0.957,5360.08447265625
468,0.958,4638.6552734375
469,0.960,1515.03393554688
470,0.962,1743.57446289063
471,0.963,1117.10021972656
472,0.965,979.342956542969
473,0.968,145668.09375
474,0.971,8190.498046875
475,0.973,10474.314453125
476,0.974,6169.16455078125
477,0.976,1465.53515625
478,0.978,537.666320800781
479,0.979,150.405578613281
480,0.982,171147.546875
481,0.985,2822.75927734375
482,0.987,1749.16882324219
483,0.989,724.868957519531
484,0.991,166491.234375
485,0.993,161212.890625
486,0.996,3892.12060546875
487,0.998,1816.416015625
488,0.999,944.618286132813
489,1.002,132961.96875
490,1.005,9734.3935546875
491,1.007,10964.7255859375
492,1.009,4096.36962890625
493,1.011,128097.5078125
494,1.015,2345.6357421875
495,1.016,876.305419921875
496,1.018,876.305419921875
497,1.020,762.39501953125
498,1.021,253.618469238281
499,1.023,63.5634384155273
500,1.026,109839.109375
501,1.027,116325.0703125
502,1.029,110978.9453125
503,1.031,106424.1796875
504,1.032,106984.828125
505,1.034,116475.8125
506,1.037,2953.18188476563
507,1.039,4421.63818359375
508,1.041,1678.14306640625
509,1.043,109828.171875
510,1.046,5619.09619140625
511,1.048,6090.9912109375
512,1.050,5463.8046875
513,1.051,803.016052246094
514,1.053,124.34642791748
515,1.055,404.745697021484
516,1.057,163950.109375
517,1.061,10378.001953125
518,1.062,12262.486328125
519,1.064,5789.841796875
520,1.066,5590.0732421875
521,1.067,5813.7744140625
522,1.069,4654.61279296875
523,1.072,261660.578125
524,1.075,4909.7548828125
525,1.077,4346.69775390625
526,1.078,1209.94860839844
527,1.081,360532
528,1.084,36449.25
529,1.086,31352.40234375
530,1.087,19394.662109375
531,1.089,4365.50244140625
532,1.091,3573.02905273438
533,1.092,2445.76708984375
534,1.094,2492.13671875
535,1.096,1542.23754882813
536,1.097,1010.79766845703
537,1.100,582197.3125
538,1.103,69527.2890625
539,1.105,67697.0625
540,1.107,32209.138671875
541,1.108,10488.87109375
542,1.110,8986.4208984375
543,1.112,6406.9609375
544,1.113,5133.92431640625
545,1.115,4600.78955078125
546,1.117,939.010925292969
547,1.119,793746.6875
548,1.122,56428.9921875
549,1.124,50491.953125
550,1.126,19209.552734375
551,1.127,29559.16796875
552,1.129,27480.2265625
553,1.131,12407.220703125
554,1.132,20896.650390625
555,1.134,25057.4140625
556,1.136,10470.14453125
557,1.138,879373.4375
558,1.142,47869.21484375
559,1.143,44748.5
560,1.145,19439.375
561,1.147,23423.06640625
562,1.148,26530.04296875
563,1.150,22677.65234375
564,1.152,9461.6552734375
565,1.153,10936.580078125
566,1.155,7829.14990234375
567,1.158,903869.625
568,1.161,43920.0703125
569,1.162,40024.453125
570,1.164,16223.978515625
571,1.166,41163.48046875
572,1.167,32868.2734375
573,1.169,11408.3671875
574,1.171,22427.56640625
575,1.172,25721.76171875
576,1.174,10263.341796875
577,1.177,952576.6875
578,1.180,60101.65234375
579,1.182,32725.634765625
580,1.183,15919.27734375
581,1.185,28334.705078125
582,1.187,25890.19921875
583,1.188,13377.529296875
584,1.190,22447.43359375
585,1.192,24001.59765625
586,1.193,19160.052734375
587,1.196,951414.9375
588,1.199,41421.73046875
589,1.201,33711.5546875
590,1.202,15116.8974609375
591,1.204,20630.38671875
592,1.206,20827.423828125
593,1.207,9419.138671875
594,1.209,15161.1669921875
595,1.211,13121.6005859375
596,1.212,4911.93603515625
597,1.215,884511.75
598,1.218,71367.7265625
599,1.220,38570.49609375
600,1.222,18329.236328125
601,1.223,21713.6171875
602,1.225,21932.267578125
603,1.227,18865.271484375
604,1.228,8854.3623046875
605,1.230,9333.2548828125
606,1.232,4361.693359375
607,1.234,770541.875
608,1.238,38226.25
609,1.239,35280.6640625
610,1.241,14000.0283203125
611,1.242,9591.9345703125
612,1.244,9359.396484375
613,1.246,4757.47705078125
614,1.247,7955.88525390625
615,1.249,5890.68115234375
616,1.251,2768.17578125
617,1.253,668873.6875
618,1.257,55023.3125
619,1.258,26595.13671875
620,1.260,13105.3076171875
621,1.262,26820.255859375
622,1.263,28624.64453125
623,1.265,25159.689453125
624,1.267,6451.5576171875
625,1.268,6610.953125
626,1.270,2961.71166992188
627,1.273,583764.1875
628,1.276,22635.939453125
629,1.278,21087.923828125
630,1.279,10261.6474609375
631,1.281,5063.7822265625
632,1.282,4959.1455078125
633,1.284,2333.42358398438
634,1.286,8235.2646484375
635,1.287,9747.939453125
636,1.289,9565.37109375
637,1.292,567552.4375
638,1.295,65106.07421875
639,1.297,39704.57421875
640,1.298,19545.859375
641,1.300,19831.1640625
642,1.302,18696.68359375
643,1.303,16345.2060546875
644,1.305,2905.79174804688
645,1.307,3044.93041992188
646,1.308,882.556945800781
647,1.311,920754.9375
648,1.314,15248.1552734375
649,1.316,15248.8330078125
650,1.318,12495.8486328125
651,1.319,5416.28759765625
652,1.321,5288.634765625
653,1.322,2022.79370117188
654,1.324,7557.376953125
655,1.326,9022.7958984375
656,1.327,7701.171875
657,1.330,1056519.875
658,1.333,205633.640625
659,1.335,93208.3203125
660,1.337,42913.53125
661,1.338,6184.2265625
662,1.340,6322.90771484375
663,1.342,5082.7958984375
664,1.343,4018.21752929688
665,1.345,2459.50903320313
666,1.347,579.838745117188
667,1.349,901454
668,1.353,39699.453125
669,1.354,40368.37890625
670,1.356,35444.5078125
671,1.358,11793.98828125
672,1.359,7342.04248046875
673,1.361,2207.63427734375
674,1.362,5093.11181640625
675,1.364,5400.6513671875
676,1.366,3284.46020507813
677,1.368,761872.5625
678,1.372,66962.578125
679,1.373,34657.31640625
680,1.375,17528.60546875
681,1.377,9753.7451171875
682,1.378,7236.09228515625
683,1.380,5950.00390625
684,1.382,265.8046875
685,1.383,160.760360717773
686,1.385,219.33122253418
687,1.388,594945.25
688,1.391,32649.12109375
689,1.393,36572.80859375
690,1.394,31647.865234375
691,1.396,8668.5068359375
692,1.398,5827.38427734375
693,1.399,1512.93798828125
694,1.401,4028.74145507813
695,1.402,3097.64965820313
696,1.404,1683.23107910156
697,1.407,467356.65625
698,1.410,38646.68359375
699,1.412,17108.619140625
700,1.413,9632.080078125
701,1.415,4561.33203125
702,1.417,4889.63720703125
703,1.418,4525.34326171875
704,1.420,4416.841796875
705,1.422,4187.13037109375
706,1.423,2771.67211914063
707,1.426,381695.9375
708,1.429,20229.634765625
709,1.431,21039.849609375
710,1.433,16145.640625
711,1.434,4547.6748046875
712,1.436,2980.29565429688
713,1.438,739.090393066406
714,1.439,3920.6982421875
715,1.441,4561.06005859375
716,1.442,3337.57421875
717,1.445,321401.71875
718,1.448,14037.3935546875
719,1.450,7785.28173828125
720,1.452,3462.142578125
721,1.453,4189.72607421875
722,1.455,2797.19116210938
723,1.457,1278.76232910156
724,1.458,3118.19262695313
725,1.460,2158.72021484375
726,1.462,984.597229003906
727,1.464,330359.90625
728,1.468,8996.3486328125
729,1.469,9569.08203125
730,1.471,8803.5205078125
731,1.473,52959.84765625
732,1.474,72922.3515625
733,1.476,84585.75
734,1.478,6407.078125
735,1.479,5504.103515625
736,1.481,4126.68603515625
737,1.484,1121246.375
738,1.487,25492.201171875
739,1.488,25326.47265625
740,1.490,22191.626953125
741,1.492,11041.6083984375
742,1.493,10590.291015625
743,1.495,5886.56640625
744,1.497,6845.43994140625
745,1.498,792.468200683594
746,1.500,596.540710449219
747,1.503,2011832.25
748,1.506,698889.5625
749,1.508,758964.1875
750,1.509,664296.9375
751,1.511,791933.8125
752,1.513,833691.4375
753,1.514,626643.875
754,1.516,927.482116699219
755,1.518,850.733520507813
756,1.519,474.620330810547
757,1.522,2208859.5
758,1.525,56215.73046875
759,1.527,55683
760,1.528,40830.81640625
761,1.530,751084.125
762,1.532,761690.3125
763,1.533,568435.9375
764,1.535,38568.75390625
765,1.537,39108.13671875
766,1.538,38192.46484375
767,1.541,2002974.5
768,1.544,594233.125
769,1.546,588513.4375
770,1.548,493081.84375
771,1.549,589756.8125
772,1.551,575378.5625
773,1.553,403317.9375
774,1.554,5397.13232421875
775,1.556,4686.7587890625
776,1.558,5599.49267578125
777,1.560,1647903.75
778,1.563,32026.3046875
779,1.565,28386.78515625
780,1.567,22754.1171875
781,1.568,20517.31640625
782,1.570,16169.4814453125
783,1.572,9744.2353515625
784,1.573,13503.9482421875
785,1.575,14865.7724609375
786,1.577,9563.244140625
787,1.579,1456634.625
788,1.583,295513.71875
789,1.584,273707.28125
790,1.586,220830.796875
791,1.588,46326
