#"+ESI TIC MS(all) Frag=120.0V SALJA0986.d "
#Point,X(Minutes),Y(Counts)
0,0.036,114466.3828125
1,0.039,4648.77783203125
2,0.041,3383.17529296875
3,0.042,884.787414550781
4,0.044,4573.17138671875
5,0.045,4362.2353515625
6,0.047,4323.13671875
7,0.050,117264.6875
8,0.053,6706.22021484375
9,0.055,3414.53686523438
10,0.056,1262.50061035156
11,0.058,5602.60107421875
12,0.060,4230.1171875
13,0.061,3081.8603515625
14,0.063,2009.83654785156
15,0.065,1570.67993164063
16,0.066,1599.64489746094
17,0.069,114390.0390625
18,0.071,119375.953125
19,0.072,111324.9921875
20,0.074,119353.1875
21,0.077,698.670593261719
22,0.079,478.445922851563
23,0.081,98.6883773803711
24,0.083,118841.984375
25,0.087,4839.95068359375
26,0.088,3693.68017578125
27,0.090,1241.21508789063
28,0.091,1757.37927246094
29,0.093,2252.94677734375
30,0.095,1697.1845703125
31,0.096,4380.955078125
32,0.098,5039.2861328125
33,0.100,3745.05004882813
34,0.102,118436.6640625
35,0.104,118019.8125
36,0.106,118641.5078125
37,0.107,119580.1328125
38,0.109,116095.640625
39,0.111,119349.234375
40,0.113,122198.6953125
41,0.114,117394.9609375
42,0.117,5220.2265625
43,0.119,2871.5869140625
44,0.121,963.449829101563
45,0.122,5279.84130859375
46,0.124,4847.42626953125
47,0.126,3573.97827148438
48,0.127,1636.76098632813
49,0.129,2138.4970703125
50,0.131,1350.81469726563
51,0.133,119079.8359375
52,0.137,927.134887695313
53,0.138,400.057678222656
54,0.140,279.703155517578
55,0.143,119917.3203125
56,0.144,116256.765625
57,0.146,118697.1484375
58,0.148,121308.203125
59,0.149,118271.953125
60,0.151,119789.1953125
61,0.153,115692.7578125
62,0.156,3778.10913085938
63,0.158,3303.65258789063
64,0.159,1154.42956542969
65,0.161,4327.431640625
66,0.163,4393.49462890625
67,0.164,5278.22705078125
68,0.167,120349.3046875
69,0.170,1922.48132324219
70,0.172,1878.20764160156
71,0.174,1923.74072265625
72,0.175,739.425048828125
73,0.177,405.480560302734
74,0.178,133.782104492188
75,0.181,118891.5078125
76,0.183,122043.5703125
77,0.185,115799.171875
78,0.186,119030.2578125
79,0.188,117145.1171875
80,0.190,113902.921875
81,0.191,119638.1796875
82,0.195,6196.767578125
83,0.196,2844.37866210938
84,0.198,1385.08544921875
85,0.199,4254.7978515625
86,0.201,4437.2138671875
87,0.203,3473.66674804688
88,0.205,114209.859375
89,0.209,759.105529785156
90,0.210,441.678649902344
91,0.212,133.661407470703
92,0.215,120393.2578125
93,0.218,1999.42639160156
94,0.220,2281.5693359375
95,0.221,1778.09362792969
96,0.224,118462.765625
97,0.226,116686.3515625
98,0.227,118118.4765625
99,0.229,115186.1796875
100,0.231,114066.3671875
101,0.234,4797.9091796875
102,0.236,3317.16040039063
103,0.237,478.572814941406
104,0.239,4594.80419921875
105,0.241,5331.134765625
106,0.242,4087.95434570313
107,0.245,115221.859375
108,0.247,119181.953125
109,0.250,1628.93762207031
110,0.251,1716.42041015625
111,0.253,1674.13879394531
112,0.255,1106.41931152344
113,0.256,263.683563232422
114,0.258,263.683563232422
115,0.261,120562.578125
116,0.262,112751.859375
117,0.264,112086.3984375
118,0.266,113863.109375
119,0.267,120395.8984375
120,0.269,116035.125
121,0.272,4437.0849609375
122,0.274,4189.2568359375
123,0.276,716.691650390625
124,0.277,5006.96435546875
125,0.279,3815.90063476563
126,0.281,3884.87451171875
127,0.283,114843.0234375
128,0.285,116922.921875
129,0.288,1095.60131835938
130,0.290,1957.37426757813
131,0.292,1345.70300292969
132,0.293,825.618469238281
133,0.295,480.296936035156
134,0.297,7.125
135,0.299,112161.9375
136,0.301,122973.625
137,0.303,112449.015625
138,0.304,115327.140625
139,0.306,112537.2265625
140,0.308,114414.1953125
141,0.311,5722.99072265625
142,0.313,3395.46728515625
143,0.314,929.7958984375
144,0.316,4659.30078125
145,0.318,3798.43115234375
146,0.319,3452.46923828125
147,0.322,117430.328125
148,0.324,120391.859375
149,0.327,1372.23083496094
150,0.328,1771.56726074219
151,0.330,1508.22644042969
152,0.332,690.463806152344
153,0.333,136.473052978516
154,0.335,41.390625
155,0.338,110910.5234375
156,0.339,109169.09375
157,0.341,112405.7578125
158,0.343,112680.1484375
159,0.344,113085.6328125
160,0.346,112622.03125
161,0.349,4657.55029296875
162,0.351,3797.13134765625
163,0.353,1250.923828125
164,0.354,5187.4970703125
165,0.356,3892.31103515625
166,0.358,2486.49487304688
167,0.360,112516.609375
168,0.362,116737.03125
169,0.365,1008.71270751953
170,0.367,492.559265136719
171,0.369,492.559265136719
172,0.370,1591.21667480469
173,0.372,1109.22412109375
174,0.374,1611.57507324219
175,0.376,116091.4296875
176,0.378,109659.578125
177,0.380,115827.125
178,0.381,111805.6640625
179,0.383,116231.484375
180,0.385,111163.3046875
181,0.388,4662.22021484375
182,0.390,3277.705078125
183,0.391,849.198547363281
184,0.393,4877.82177734375
185,0.395,4216.71142578125
186,0.396,3803.21069335938
187,0.399,118650.3671875
188,0.401,114760.3125
189,0.404,827.211120605469
190,0.405,170.000915527344
191,0.407,35.0526313781738
192,0.409,1761.78869628906
193,0.410,1128.55249023438
194,0.412,1402.22204589844
195,0.415,115615.6328125
196,0.416,119140.46875
197,0.418,111214.4453125
198,0.420,110838.6171875
199,0.421,115319.25
200,0.423,112402.6015625
201,0.426,4173.1494140625
202,0.428,3960.015625
203,0.430,1542.99938964844
204,0.432,115394.7890625
205,0.436,5424.30859375
206,0.437,4631.8837890625
207,0.439,3440.04614257813
208,0.442,113920.625
209,0.445,1456.71044921875
210,0.447,1890.66357421875
211,0.448,2093.55102539063
212,0.451,110787.984375
213,0.453,110039.390625
214,0.454,114707.296875
215,0.456,116887.640625
216,0.458,116814.6875
217,0.459,110682.625
218,0.461,112916.5234375
219,0.463,108866.5
220,0.466,4499.2177734375
221,0.468,3056.35180664063
222,0.469,1125.99621582031
223,0.472,109735.796875
224,0.475,3940.8408203125
225,0.477,3225.080078125
226,0.478,3777.06884765625
227,0.481,110143.3828125
228,0.484,1455.34643554688
229,0.486,1745.07189941406
230,0.488,2464.82177734375
231,0.490,109305.2421875
232,0.492,111884.046875
233,0.495,656.489501953125
234,0.497,481.689147949219
235,0.499,481.689147949219
236,0.501,112072.8671875
237,0.505,4979.7412109375
238,0.506,3004.22021484375
239,0.508,1128.138671875
240,0.511,111676.8671875
241,0.512,116316.59375
242,0.516,2461.68505859375
243,0.517,1489.0107421875
244,0.519,1425.72106933594
245,0.520,4288.06494140625
246,0.522,5174.0361328125
247,0.524,2962.76318359375
248,0.526,106586.203125
249,0.528,104911.4296875
250,0.530,111987.1640625
251,0.532,110271.59375
252,0.533,110324.6484375
253,0.536,4147.28857421875
254,0.538,2778.89404296875
255,0.540,1427.42736816406
256,0.542,112958.6875
257,0.544,110455.4296875
258,0.547,728.50244140625
259,0.549,381.529876708984
260,0.551,23.765625
261,0.553,116025.109375
262,0.557,5154.18212890625
263,0.558,3723.138671875
264,0.560,2716.72705078125
265,0.562,2530.35009765625
266,0.563,1319.69396972656
267,0.565,1601.49328613281
268,0.568,111532.0703125
269,0.569,107790
270,0.571,108695.6875
271,0.573,108075.3125
272,0.576,4414.958984375
273,0.578,3172.70336914063
274,0.579,1415.96472167969
275,0.582,110821.8203125
276,0.584,109240.4375
277,0.585,113750.4375
278,0.588,1848.71179199219
279,0.590,1325.80688476563
280,0.592,1579.06689453125
281,0.594,108389.9296875
282,0.598,4807.13916015625
283,0.599,3534.81860351563
284,0.601,2572.05224609375
285,0.604,109452.9765625
286,0.605,113749.5
287,0.609,1217.41198730469
288,0.610,365.887756347656
289,0.612,9.33333301544189
290,0.615,111650.0625
291,0.618,3728.07690429688
292,0.620,3809.26513671875
293,0.621,953.384155273438
294,0.624,110267.6015625
295,0.626,113284.28125
296,0.629,1942.52490234375
297,0.630,1620.47839355469
298,0.632,922.1865234375
299,0.635,105700.75
300,0.636,113378.0078125
301,0.638,109473.9140625
302,0.640,117915.9765625
303,0.642,108938.296875
304,0.643,111502.5859375
305,0.645,109431.1796875
306,0.647,111700.171875
307,0.650,4765.20947265625
308,0.651,3401.85327148438
309,0.653,928.478698730469
310,0.655,1003.74047851563
311,0.656,124.21800994873
312,0.658,74.5557250976563
313,0.661,107163.328125
314,0.664,4677.7841796875
315,0.666,4427.6083984375
316,0.667,2710.69580078125
317,0.670,105845.921875
318,0.673,1859.80932617188
319,0.675,1614.07690429688
320,0.677,1200.30578613281
321,0.679,111111.65625
322,0.681,113814.1328125
323,0.683,108945.28125
324,0.684,113189.7109375
325,0.686,114382.0546875
326,0.689,4448.607421875
327,0.691,3447.69506835938
328,0.693,1270.84448242188
329,0.695,109669.3515625
330,0.697,108689.15625
331,0.699,107904.390625
332,0.702,1318.96911621094
333,0.704,87.125
334,0.705,87.125
335,0.708,113952.1953125
336,0.711,4290.0146484375
337,0.713,3300.07568359375
338,0.714,3541.1650390625
339,0.717,107639.2265625
340,0.719,102767.28125
341,0.720,103918.5546875
342,0.724,1112.29284667969
343,0.725,1456.01037597656
344,0.727,979.268310546875
345,0.730,107334.375
346,0.733,4686.46923828125
347,0.735,3136.74243164063
348,0.736,1110.43603515625
349,0.739,108914.3984375
350,0.742,4045.0263671875
351,0.744,4478.50341796875
352,0.746,3182.18334960938
353,0.748,113527.0859375
354,0.751,1088.83471679688
355,0.753,309.459899902344
356,0.755,309.459899902344
357,0.757,105028.984375
358,0.759,105031.1875
359,0.762,1222.06286621094
360,0.764,1517.45324707031
361,0.766,1513.41125488281
362,0.768,112096.171875
363,0.772,4346.2548828125
364,0.773,3590.53979492188
365,0.775,685.961059570313
366,0.778,106001.0546875
367,0.779,110765.296875
368,0.783,4201.56787109375
369,0.784,3317.77001953125
370,0.786,3047.06396484375
371,0.789,102682.9609375
372,0.790,105344.7578125
373,0.794,917.29443359375
374,0.795,420.446044921875
375,0.797,24.0026588439941
376,0.800,110122.78125
377,0.803,4593.05615234375
378,0.804,3192.16967773438
379,0.806,1121.13256835938
380,0.808,2273.51049804688
381,0.809,1319.5517578125
382,0.811,1096.28955078125
383,0.814,106205.6328125
384,0.815,105294.8203125
385,0.817,106430.6015625
386,0.819,114251.953125
387,0.822,4193.61328125
388,0.824,3765.451171875
389,0.825,2829.92846679688
390,0.828,110588.3359375
391,0.830,112201.09375
392,0.831,107410.046875
393,0.835,4316.27001953125
394,0.836,2947.99047851563
395,0.838,938.853942871094
396,0.840,1575.91528320313
397,0.841,1202.69604492188
398,0.843,2441.41235351563
399,0.846,110718.421875
400,0.847,103982.265625
401,0.849,106398.015625
402,0.851,106612.0078125
403,0.854,816.526733398438
404,0.856,602.385498046875
405,0.857,602.385498046875
406,0.860,104653.453125
407,0.862,105510.9453125
408,0.863,105383.6328125
409,0.865,101919.8125
410,0.868,3589
411,0.870,3071.50756835938
412,0.871,3455.47729492188
413,0.874,107971.875
414,0.877,3899.24169921875
415,0.879,2804.39575195313
416,0.881,1374.88342285156
417,0.882,2277.52075195313
418,0.884,1446.94775390625
419,0.886,2033.71313476563
420,0.888,105936.4921875
421,0.890,109829.8984375
422,0.892,107905.53125
423,0.893,106855.7421875
424,0.895,102408.4296875
425,0.897,107642.65625
426,0.900,798.611083984375
427,0.902,439.089416503906
428,0.903,439.089416503906
429,0.906,108976.9296875
430,0.909,5074.01611328125
431,0.911,2796.30224609375
432,0.913,657.51220703125
433,0.914,1303.65747070313
434,0.916,1597.31274414063
435,0.918,1143.17797851563
436,0.920,105967.03125
437,0.922,99814.3515625
438,0.924,105787.0078125
439,0.925,109448.53125
440,0.929,4575.619140625
441,0.930,4046.8203125
442,0.932,2918.40283203125
443,0.935,105682.78125
444,0.936,109249.15625
445,0.938,112432.3125
446,0.941,4207.34130859375
447,0.943,3366.29125976563
448,0.944,880.774719238281
449,0.946,1719.16638183594
450,0.948,1808.10424804688
451,0.949,1182.43444824219
452,0.952,105323.6015625
453,0.955,1476.30822753906
454,0.957,521.146240234375
455,0.959,521.146240234375
456,0.961,115340.3046875
457,0.963,114551.4140625
458,0.965,116444.5078125
459,0.968,3595.4833984375
460,0.970,4499.16552734375
461,0.971,3151.92993164063
462,0.974,109986.203125
463,0.976,114700.578125
464,0.977,120951.4453125
465,0.981,4342.591796875
466,0.982,3049.3203125
467,0.984,1312.53674316406
468,0.986,4108.47021484375
469,0.987,4481.2939453125
470,0.989,2401.583984375
471,0.991,1135.49243164063
472,0.992,1996.07983398438
473,0.994,1354.31701660156
474,0.996,119090.34375
475,0.998,123500.140625
476,1.001,1162.84484863281
477,1.003,313.616027832031
478,1.005,75.1736145019531
479,1.007,109225.59375
480,1.009,105450.671875
481,1.011,109531.390625
482,1.012,103109.3125
483,1.014,107674.6484375
484,1.016,99000.796875
485,1.019,5126.63037109375
486,1.021,5175.26513671875
487,1.022,1841.21398925781
488,1.024,2511.6044921875
489,1.026,1811.34362792969
490,1.027,867.720275878906
491,1.030,85033.0390625
492,1.032,88263.6796875
493,1.033,88891.2734375
494,1.035,92347.2421875
495,1.037,89701.234375
496,1.038,88252.109375
497,1.040,84697.875
498,1.042,86988.9375
499,1.043,90684.140625
500,1.045,88893.9765625
501,1.047,89249.625
502,1.049,86711.671875
503,1.050,86944.1953125
504,1.052,92962.8203125
505,1.054,88506.0234375
506,1.055,95581.515625
507,1.058,2396.90014648438
508,1.060,1541.96496582031
509,1.062,402.007537841797
510,1.063,1762.82495117188
511,1.065,2190.26513671875
512,1.067,1114.50305175781
513,1.069,129461.6796875
514,1.073,9090.716796875
515,1.074,8609.3671875
516,1.076,4945.54443359375
517,1.078,1479.67956542969
518,1.079,1364.44702148438
519,1.081,797.59716796875
520,1.083,5022.20263671875
521,1.084,5195.10009765625
522,1.086,2553.15893554688
523,1.089,162150.046875
524,1.092,1723.70373535156
525,1.094,1584.13891601563
526,1.095,1130.61682128906
527,1.098,180949.5625
528,1.101,17615.89453125
529,1.103,21591.611328125
530,1.104,9851.40234375
531,1.106,7262.8408203125
532,1.108,8516.55078125
533,1.109,5134.7626953125
534,1.111,3292.52758789063
535,1.113,2013.45373535156
536,1.114,928.012939453125
537,1.117,215317.65625
538,1.120,4704.7001953125
539,1.122,6104.9970703125
540,1.124,2676.39770507813
541,1.125,1632.8662109375
542,1.127,1773.09619140625
543,1.129,411.646636962891
544,1.130,2691.7392578125
545,1.132,2650.76489257813
546,1.134,1447.60595703125
547,1.136,279277.40625
548,1.139,5069.37353515625
549,1.141,5188.78076171875
550,1.143,2955.83129882813
551,1.144,4358.31689453125
552,1.146,3897.13647460938
553,1.148,2954.490234375
554,1.149,989.627746582031
555,1.151,351.463287353516
556,1.153,551.894287109375
557,1.155,366677.71875
558,1.159,19075.970703125
559,1.160,20881.408203125
560,1.162,9776.591796875
561,1.164,8205.046875
562,1.165,8752.1181640625
563,1.167,4737.6611328125
564,1.169,11329.9306640625
565,1.170,9640.208984375
566,1.172,3901.79711914063
567,1.175,402345.5625
568,1.178,16158.984375
569,1.179,15877.9072265625
570,1.181,13758.1259765625
571,1.183,5145.48291015625
572,1.184,4411.587890625
573,1.186,3177.50439453125
574,1.188,4604.85205078125
575,1.189,3778.87475585938
576,1.191,1106.0869140625
577,1.194,410550.1875
578,1.197,13432.32421875
579,1.199,11761.03125
580,1.200,6286.46240234375
581,1.202,12565.4140625
582,1.204,10676.310546875
583,1.205,5660.71142578125
584,1.207,4982.455078125
585,1.209,5884.39453125
586,1.210,2930.900390625
587,1.213,358144.21875
588,1.216,15916.697265625
589,1.218,16282.2509765625
590,1.219,13023.71484375
591,1.221,1520.15563964844
592,1.223,412.798400878906
593,1.224,170.864303588867
594,1.226,4593.3896484375
595,1.228,3982.49169921875
596,1.229,4201.1357421875
597,1.232,309159.59375
598,1.235,6706.33349609375
599,1.237,5503.91748046875
600,1.239,2636.05541992188
601,1.240,6296.73046875
602,1.242,6678.1533203125
603,1.244,2406.1435546875
604,1.245,3008.751953125
605,1.247,3343.50903320313
606,1.249,1705.77514648438
607,1.251,255095.03125
608,1.255,8813.2119140625
609,1.256,7275.09521484375
610,1.258,7368.32763671875
611,1.259,2525.85400390625
612,1.261,3039.54711914063
613,1.263,1898.33825683594
614,1.264,2892.97241210938
615,1.266,1584.16052246094
616,1.268,667.009216308594
617,1.270,211712.046875
618,1.274,3877.00390625
619,1.275,2875.89013671875
620,1.277,1088.16491699219
621,1.279,4229.14111328125
622,1.280,3096.47705078125
623,1.282,1719.05749511719
624,1.284,2462.18090820313
625,1.285,2001.36828613281
626,1.287,694.284606933594
627,1.290,190096.625
628,1.293,3838.49194335938
629,1.295,3496.27075195313
630,1.296,3506.56201171875
631,1.298,2686.62109375
632,1.299,1810.53649902344
633,1.301,474.095581054688
634,1.303,2879.99389648438
635,1.304,1858.02319335938
636,1.306,1443.19470214844
637,1.309,192245.859375
638,1.312,488.173950195313
639,1.314,262.942443847656
640,1.315,101.584541320801
641,1.317,4285.4052734375
642,1.319,5326.14306640625
643,1.320,4267.89794921875
644,1.323,201822.015625
645,1.326,2820.08227539063
646,1.328,3106.64990234375
647,1.330,924.990966796875
648,1.332,206419.578125
649,1.335,491.792053222656
650,1.337,80.9730758666992
651,1.339,322.243408203125
652,1.340,7161.77294921875
653,1.342,7499.30126953125
654,1.344,7167.9326171875
655,1.346,218834.375
656,1.348,215577.390625
657,1.350,213343.46875
658,1.353,2376.3603515625
659,1.355,2188.15087890625
660,1.356,813.452514648438
661,1.358,2433.64282226563
662,1.360,1813.71228027344
663,1.361,427.279968261719
664,1.364,202716.28125
665,1.367,805.819641113281
666,1.369,458.469146728516
667,1.371,39.4819831848145
668,1.372,6376.35595703125
669,1.374,5568.29248046875
670,1.376,5916.69384765625
671,1.378,195721.03125
672,1.380,193939.421875
673,1.383,2027.37915039063
674,1.385,2045.36145019531
675,1.386,986.7236328125
676,1.389,201178.125
677,1.392,3006.20849609375
678,1.394,3021.89013671875
679,1.396,913.346801757813
680,1.398,191547.75
681,1.402,381.850463867188
682,1.403,186.40544128418
683,1.405,479.776306152344
684,1.407,3351.50366210938
685,1.408,3621.26147460938
686,1.410,3001.65991210938
687,1.413,173691.515625
688,1.414,181275.4375
689,1.418,2327.5390625
690,1.419,1730.00659179688
691,1.421,1200.70166015625
692,1.424,169661.15625
693,1.427,3330.53784179688
694,1.428,2314.88330078125
695,1.430,960.430541992188
696,1.432,1976.39221191406
697,1.433,1989.87109375
698,1.435,829.507873535156
699,1.438,156548.546875
700,1.439,159167.71875
701,1.443,2587.95947265625
702,1.444,1257.55749511719
703,1.446,1199.58093261719
704,1.449,154361.4375
705,1.450,155647.609375
706,1.452,156191.421875
707,1.454,148897.21875
708,1.455,153439.4375
709,1.459,3928.935546875
710,1.460,1615.51123046875
711,1.462,680.529663085938
712,1.465,159072.15625
713,1.466,157882.53125
714,1.470,5449.70849609375
715,1.471,7671.6806640625
716,1.473,9255.296875
717,1.476,205175.375
718,1.479,2309.3671875
719,1.480,2525.07958984375
720,1.482,1650.28942871094
721,1.484,3748.2236328125
722,1.485,4110.35693359375
723,1.487,2869.80126953125
724,1.490,436946.6875
725,1.493,2355.47021484375
726,1.495,1586.11193847656
727,1.496,1676.59509277344
728,1.499,705354.875
729,1.502,1898.73388671875
730,1.504,2003.45727539063
731,1.506,686.565551757813
732,1.507,1796.41088867188
733,1.509,283.146301269531
734,1.511,226.740646362305
735,1.513,951408.625
736,1.517,251650.359375
737,1.518,257985.359375
738,1.520,214184.265625
739,1.521,15268.232421875
740,1.523,14903.498046875
741,1.525,12555.5107421875
742,1.527,960620
743,1.531,1904.69580078125
744,1.532,1072.67077636719
745,1.534,1257.236328125
746,1.537,873672.625
747,1.540,2373.08349609375
748,1.542,2118.64184570313
749,1.543,848.829772949219
750,1.545,2300.94091796875
751,1.547,740.3515625
752,1.548,348.576324462891
753,1.551,743059.8125
754,1.554,152441.6875
755,1.556,144902.625
756,1.557,122195.703125
757,1.559,9187.4130859375
758,1.561,9334.291015625
759,1.562,6524.509765625
760,1.564,131249.671875
761,1.566,129463.6484375
762,1.567,96677.8203125
763,1.570,549575.25
764,1.573,1858.06384277344
765,1.575,786.825378417969
766,1.577,164.547073364258
767,1.578,3284.0712890625
768,1.580,2623.4345703125
769,1.582,959.614807128906
770,1.583,4130.50048828125
771,1.585,3609.69946289063
772,1.587,2553.14111328125
773,1.589,451514.375
774,1.593,59372.46875
775,1.594,60106.79296875
776,1.596,51628.87109375
777,1.597,3558.40673828125
778,1.599,3436.64453125
779,1.601,2761.09106445313
780,1.602,4000.28588867188
781,1.604,3425.69091796875
782,1.606,1838.94152832031
783,1.608,364987.3125
784,1.612,4479.466796875
785,1.613,2993.83081054688
